,Latitude,Longitude,Bottom depth (m),Fish 38 kHz sA (m^2 nmi^-2),Zooplankton 120 kHz sA (m^2 nmi^-2),Arctic cod (No. m^-2),Saffron cod (No. m^-2),Capelin (No. m^-2),herring (No. m^-2),Pollock (No. m^-2)
0,66.043,-168.57,54.803999999999995,4.0635,0.55496,0.0,0.0,0.017603999999999998,0.0,0.0
1,66.035,-168.57,54.468,4.0422,0.31265,0.0,0.0,0.017512,0.0,0.0
2,66.027,-168.56,54.638999999999996,3.0132,0.022784,0.0,0.0,0.013054,0.0,0.0
3,66.01899999999999,-168.56,54.762,1.4204,0.016794,0.0,0.0,0.0061537,0.0,0.0
4,66.012,-168.55,54.59,2.7783,0.043315,0.0,0.0,0.012036,0.0,0.0
5,66.005,-168.54,54.494,1.8675,0.030147000000000004,0.0,0.0,0.0080905,0.0,0.0
6,66.001,-168.52,54.31,2.8261,0.12415999999999999,0.0,0.0,0.012243,0.0,0.0
7,66.0,-168.5,53.497,2.6716,0.002053,0.0,0.0,0.011574,0.0,0.0
8,66.0,-168.48,54.358999999999995,13.139000000000001,0.012068,1.1234000000000001e-06,2.9570999999999996e-06,0.012828,0.0026435,3.13742e-05
9,66.0,-168.46,56.431999999999995,4.9687,0.010015999999999999,0.0,0.0,0.021526,0.0,0.0
10,66.0,-168.44,57.908,20.09,0.015794,1.5596e-06,4.1054000000000005e-06,0.02688,0.00367,4.35571e-05
11,66.0,-168.42,56.706,4.8639,0.053312,0.0,0.0,0.021072,0.0,0.0
12,66.0,-168.4,56.193000000000005,7.4168,0.080887,0.0,0.0,0.032131,0.0,0.0
13,66.0,-168.38,55.205,43.863,0.21958000000000003,0.0,0.0,0.19003,0.0,0.0
14,66.0,-168.36,54.236999999999995,64.138,0.29973,0.0,0.0,0.27786,0.0,0.0
15,66.0,-168.33,53.985,104.42,0.028687,0.0,0.0,0.45237,0.0,0.0
16,66.0,-168.31,53.692,131.23,0.0017980000000000001,0.0,0.0,0.56852,0.0,0.0
17,66.0,-168.29,53.095,94.449,2.5657,0.0,0.0,0.40918000000000004,0.0,0.0
18,66.0,-168.27,52.92100000000001,65.821,1.5329,0.0,0.0,0.28515,0.0,0.0
19,66.0,-168.25,52.325,32.076,1.0844,0.0,0.0,0.13896,0.0,0.0
20,66.0,-168.23,51.376000000000005,19.589000000000002,3.5323,0.0,0.0,0.084866,0.0,0.0
21,66.0,-168.21,50.09,12.077,2.9457,0.0,0.0,0.052319000000000004,0.0,0.0
22,66.0,-168.19,49.876000000000005,23.849,2.4088,7.3979e-07,1.9474e-06,0.073722,0.0017409000000000003,2.06615e-05
23,66.0,-168.17,49.505,19.418,1.0613,0.0,0.0,0.084122,0.0,0.0
24,66.0,-168.15,48.063,49.68600000000001,0.90036,3.5461000000000002e-06,9.3345e-06,0.069339,0.0083446,9.9036e-05
25,66.0,-168.13,46.159,16.427,0.5431600000000001,0.0,0.0,0.071166,0.0,0.0
26,66.0,-168.11,42.722,46.025,0.46633,3.0876e-06,8.1278e-06,0.072841,0.0072658,8.623299999999999e-05
27,66.0,-168.09,40.959,9.8184,0.052142999999999995,0.0,0.0,0.042536000000000004,0.0,0.0
28,66.0,-168.07,39.595,8.2503,0.33983,0.0,0.0,0.035742,0.0,0.0
29,66.0,-168.05,37.321999999999996,7.2654,0.8392200000000001,0.0,0.0,0.031475,0.0,0.0
30,66.0,-168.03,35.925,5.5906,0.16133,0.0,0.0,0.02422,0.0,0.0
31,66.0,-168.01,34.156,7.6059,0.10355999999999999,0.0,0.0,0.03295,0.0,0.0
32,66.0,-167.99,31.651999999999997,5.6047,0.001078,0.0,0.0,0.024281,0.0,0.0
33,66.0,-167.97,28.444000000000003,279.97,0.10008,2.5746e-05,6.7772e-05,0.077475,0.060584000000000006,0.000719039
34,66.0,-167.95,25.448,7.1699,0.022934,5.428199999999999e-07,1.4288999999999998e-06,0.0057185000000000005,0.0012774000000000001,1.51601e-05
35,66.0,-167.93,22.35,6.6903,0.022205000000000003,6.1245e-07,1.6122e-06,8.0605e-07,0.0014412000000000001,1.71045e-05
36,66.0,-167.9,18.587,6.0369,0.12322000000000001,5.445499999999999e-07,1.4335e-06,7.167000000000001e-07,0.0012814,1.5208699999999999e-05
37,66.0,-167.9,18.587,6.0369,0.12322000000000001,5.445499999999999e-07,1.4335e-06,7.167000000000001e-07,0.0012814,4.03941e-05
38,66.0,-167.9,18.587,6.0369,0.12322000000000001,5.445499999999999e-07,1.4335e-06,7.167000000000001e-07,0.0012814,5.54047e-06
39,66.0,-167.9,19.135,16.074,0.1663,1.4463e-06,3.8073000000000004e-06,1.9034999999999999e-06,0.0034035,1.5208699999999999e-05
40,66.0,-167.9,19.135,16.074,0.1663,1.4463e-06,3.8073000000000004e-06,1.9034999999999999e-06,0.0034035,4.03941e-05
41,66.0,-167.9,19.135,16.074,0.1663,1.4463e-06,3.8073000000000004e-06,1.9034999999999999e-06,0.0034035,5.54047e-06
42,66.0,-167.9,16.385,2.2521,0.03596,1.9838e-07,5.222e-07,2.6109e-07,0.00046682,1.5208699999999999e-05
43,66.0,-167.9,16.385,2.2521,0.03596,1.9838e-07,5.222e-07,2.6109e-07,0.00046682,4.03941e-05
44,66.0,-167.9,16.385,2.2521,0.03596,1.9838e-07,5.222e-07,2.6109e-07,0.00046682,5.54047e-06
45,66.0,-167.92,22.736,11.681,0.88602,1.0644e-06,2.8018e-06,1.4008000000000002e-06,0.0025046,2.97257e-05
46,66.0,-167.92,22.736,11.681,0.88602,1.0644e-06,2.8018e-06,1.4008000000000002e-06,0.0025046,3.86624e-05
47,66.0,-167.92,21.324,15.589,0.030330000000000003,1.3843e-06,3.6439999999999998e-06,1.8219e-06,0.0032576000000000003,2.97257e-05
48,66.0,-167.92,21.324,15.589,0.030330000000000003,1.3843e-06,3.6439999999999998e-06,1.8219e-06,0.0032576000000000003,3.86624e-05
49,66.0,-167.88,11.548,1.7612,0.032069,1.4874e-07,3.9155000000000004e-07,1.9576e-07,0.00035002,4.15424e-06
50,66.0,-167.86,10.199,0.57281,0.20367000000000002,4.7283e-08,1.2447e-07,6.223e-08,0.00011127,1.3205400000000002e-06
51,66.0,-167.84,10.222999999999999,0.49948000000000004,0.046954,4.1229e-08,1.0852999999999999e-07,5.4263e-08,9.7021e-05,1.15148e-06
52,66.0,-167.81,10.589,0.89992,4.2394,7.4364e-08,1.9575e-07,9.7872e-08,0.00017499,2.07692e-06
53,66.0,-167.79,11.24,1.103,0.068425,9.396e-08,2.4734000000000004e-07,1.2365999999999998e-07,0.00022111,2.6242000000000002e-06
54,66.0,-167.77,11.969000000000001,2.1236,0.037318000000000004,1.7898e-07,4.7115000000000003e-07,2.3555999999999997e-07,0.00042118,4.9987300000000005e-06
55,66.0,-167.75,12.962,2.3561,0.051365,1.9659000000000002e-07,5.175e-07,2.5874e-07,0.00046262,5.4905900000000006e-06
56,66.001,-167.73,14.163,1.6273,0.60695,1.371e-07,3.609e-07,1.8044e-07,0.00032262,3.8290300000000005e-06
57,66.001,-167.71,15.328,6.778,0.29207,5.6829e-07,1.496e-06,7.4794e-07,0.0013373,1.58716e-05
58,66.0,-167.69,16.403,7.3852,0.035477,6.437000000000001e-07,1.6944999999999998e-06,8.4719e-07,0.0015148,1.79777e-05
59,66.0,-167.67,17.419,15.241,0.86056,1.3584e-06,3.5757e-06,1.7878e-06,0.0031965,3.79376e-05
60,66.0,-167.65,18.292,7.9816,0.62821,6.962100000000001e-07,1.8327e-06,9.1629e-07,0.0016382999999999999,1.94443e-05
61,66.0,-167.63,18.989,5.5201,0.068655,4.9221e-07,1.2957e-06,6.4781e-07,0.0011583,1.3746799999999999e-05
62,66.0,-167.61,19.247,28.156,1.7364,2.4892e-06,6.5524e-06,3.276e-06,0.0058575,6.95193e-05
63,66.0,-167.59,19.452,7.5558,0.026361000000000002,6.7955e-07,1.7888e-06,8.943700000000001e-07,0.0015991,1.8979100000000003e-05
64,66.0,-167.57,19.56,156.96,0.33842,1.3743e-05,3.6176e-05,1.8087e-05,0.03234,0.000383817
65,66.0,-167.55,19.532,3.2826,0.18835,2.9322e-07,7.7186e-07,3.8591e-07,0.0006900000000000001,8.189100000000001e-06
66,66.0,-167.53,19.515,7.421,0.1105,6.551300000000001e-07,1.7245e-06,8.622200000000001e-07,0.0015416,1.82964e-05
67,66.0,-167.51,19.430999999999997,11.481,0.030032,1.0329e-06,2.7189e-06,1.3594e-06,0.0024305999999999998,2.88471e-05
68,66.0,-167.49,19.269000000000002,5.2781,0.21825,4.7227e-07,1.2432e-06,6.215699999999999e-07,0.0011114,1.31899e-05
69,66.0,-167.47,19.032,7.1548,0.009265,6.3521e-07,1.6721e-06,8.3601e-07,0.0014948000000000001,1.77401e-05
70,66.0,-167.45,18.747,45.684,0.042443,4.1588e-06,1.0948e-05,5.4735e-06,0.0097865,0.00011615099999999999
71,66.0,-167.43,18.444000000000003,65.313,0.055788,5.9251e-06,1.5597e-05,7.798099999999999e-06,0.013943,0.000165479
72,66.0,-167.41,18.055,4.6148,0.17012,4.1104e-07,1.082e-06,5.4097e-07,0.00096725,1.14797e-05
73,66.0,-167.38,17.598,4.0615,0.1302,3.6104999999999997e-07,9.504200000000001e-07,4.7518e-07,0.00084962,1.00836e-05
74,66.0,-167.36,17.123,5.9719,1.1513,5.270600000000001e-07,1.3874e-06,6.9368e-07,0.0012403,1.47202e-05
75,66.0,-167.34,16.663,5.0271,0.26600999999999997,4.4815e-07,1.1797e-06,5.8982e-07,0.0010546,1.25162e-05
76,66.0,-167.32,16.17,2.7582,0.08122599999999999,2.4538e-07,6.4594e-07,3.2295e-07,0.00057744,6.853200000000001e-06
77,66.0,-167.3,15.671,1.5065,0.24854,1.3245999999999998e-07,3.4869e-07,1.7434e-07,0.00031171,3.69947e-06
78,66.0,-167.28,15.244000000000002,1.7301,0.12584,1.466e-07,3.8591e-07,1.9294e-07,0.00034498,4.09442e-06
79,66.003,-167.28,15.357999999999999,0.64479,0.18069000000000002,5.6348e-08,1.4833e-07,7.416000000000001e-08,0.0001326,1.5737200000000002e-06
80,66.01,-167.29,16.038,3.8674,1.5767,3.4051e-07,8.9634e-07,4.4815e-07,0.00080128,9.5099e-06
81,66.016,-167.3,16.649,4.4892,0.32911,3.9853e-07,1.0491e-06,5.245199999999999e-07,0.00093783,1.1130499999999998e-05
82,66.023,-167.31,17.28,3.8782,0.35125,3.4211e-07,9.005500000000001e-07,4.5025e-07,0.00080505,9.5546e-06
83,66.03,-167.32,17.884,7.6777,0.008003,6.835800000000001e-07,1.7993999999999999e-06,8.996700000000002e-07,0.0016086,1.90917e-05
84,66.036,-167.34,18.577,5.1975,0.062837,4.6656000000000007e-07,1.2282e-06,6.1404e-07,0.0010979000000000002,1.30303e-05
85,66.043,-167.35,19.332,3.3307,0.0010220000000000001,2.9920000000000003e-07,7.8761e-07,3.9378e-07,0.00070408,8.3562e-06
86,66.04899999999999,-167.36,19.61,12.698,0.08898400000000001,1.1214e-06,2.9519e-06,1.4759000000000001e-06,0.0026388,3.13186e-05
87,66.14699999999999,-167.41,23.453000000000003,10.772,0.06714500000000001,9.8159e-07,2.5839e-06,1.2919e-06,0.0023099,2.74142e-05
88,66.154,-167.4,23.62,850.64,0.013491,8.0442e-05,0.00021175,0.00010587,0.1893,0.0022465999999999996
89,66.16199999999999,-167.39,23.82,76.661,0.5673,6.921900000000001e-06,1.8221e-05,9.1101e-06,0.016288999999999998,0.00019331600000000002
90,66.169,-167.38,23.994,26.044,2.1171,2.3947e-06,6.3037e-06,3.1517000000000002e-06,0.0056351000000000005,6.687920000000001e-05
91,66.176,-167.37,24.173000000000002,12.308,1.4275,1.1359e-06,2.9901999999999998e-06,1.495e-06,0.002673,3.17249e-05
92,66.183,-167.36,24.364,11.139000000000001,1.183,1.0463e-06,2.7541000000000004e-06,1.377e-06,0.0024621,2.92211e-05
93,66.19,-167.35,24.628,23.63,0.007692,2.1869e-06,5.7568e-06,2.8783e-06,0.0051463,6.10781e-05
94,66.196,-167.34,24.818,47.998999999999995,2.2398,4.535e-06,1.1938e-05,5.9686e-06,0.010672,0.000126657
95,66.202,-167.32,25.125999999999998,68.884,1.4484,6.181000000000001e-06,1.6271e-05,8.1349e-06,0.014544999999999999,0.000172626
96,66.207,-167.31,25.421,20.793000000000003,0.7491800000000001,1.9436000000000003e-06,5.1162e-06,2.558e-06,0.004573600000000001,5.42816e-05
97,66.211,-167.29,25.656,28.488000000000003,0.34076999999999996,2.7025e-06,7.114e-06,3.5568e-06,0.0063595,7.54779e-05
98,66.21600000000001,-167.27,25.829,91.835,0.40104,8.6958e-06,2.2890999999999998e-05,1.1445e-05,0.020463,0.000242864
99,66.22,-167.25,26.041,203.13,2.1123,1.8784000000000002e-05,4.9446e-05,2.4721999999999998e-05,0.044202,0.000524608
100,66.22399999999999,-167.23,26.138,42.718,0.18835,3.8652e-06,1.0175e-05,5.0871e-06,0.0090956,0.00010795
101,66.22800000000001,-167.22,26.146,19.105,2.8843,1.763e-06,4.641e-06,2.3204e-06,0.0041488,4.92395e-05
102,66.23100000000001,-167.2,26.076,20.087,3.542,1.8609e-06,4.8983999999999996e-06,2.4491e-06,0.004379,5.19701e-05
103,66.235,-167.18,25.916999999999998,96.50299999999999,0.21111,8.5966e-06,2.2629e-05,1.1314e-05,0.020229,0.00024008600000000003
104,66.23899999999999,-167.16,25.704,16.101,5.4849,1.4882e-06,3.9174e-06,1.9586e-06,0.0035018999999999996,4.15629e-05
105,66.242,-167.14,25.461,17.267,0.98477,1.6025e-06,4.2183e-06,2.1091e-06,0.003771,4.4755699999999996e-05
106,66.24600000000001,-167.12,25.158,27.964000000000002,1.5676,2.5995e-06,6.842899999999999e-06,3.4212999999999998e-06,0.0061172,7.260139999999999e-05
107,66.25,-167.11,24.811,344.57,1.5262,3.2582e-05,8.5768e-05,4.2882e-05,0.076672,0.0009099799999999999
108,66.25399999999999,-167.09,24.39,115.14,2.4986,1.0858e-05,2.8582e-05,1.429e-05,0.025551,0.000303241
109,66.258,-167.07,24.006999999999998,24.808000000000003,0.057633000000000004,2.2853999999999998e-06,6.0160000000000005e-06,3.0078e-06,0.005378,6.38279e-05
110,66.262,-167.05,23.601999999999997,16.14,0.0403,1.4908000000000002e-06,3.9242000000000005e-06,1.962e-06,0.003508,4.16349e-05
111,66.266,-167.03,23.174,25.924,2.8966,2.3591e-06,6.21e-06,3.1048000000000003e-06,0.0055514,6.5886e-05
112,66.271,-167.02,22.753,11.349,1.1373,1.0477e-06,2.758e-06,1.3788999999999998e-06,0.0024655000000000002,2.9261599999999998e-05
113,66.275,-167.0,22.394000000000002,26.034000000000002,4.2816,2.4019e-06,6.3227e-06,3.1612e-06,0.0056521,6.708119999999999e-05
114,66.28,-166.98,21.965,13.13,0.12235,1.1784e-06,3.1021e-06,1.5509999999999998e-06,0.0027730999999999997,3.2912e-05
115,66.28399999999999,-166.96,21.541,13.245999999999999,0.32264,1.1862e-06,3.1224e-06,1.5611000000000002e-06,0.0027913,3.3127900000000005e-05
116,66.289,-166.95,21.129,23.755,0.79519,2.1304e-06,5.6079999999999995e-06,2.8038e-06,0.0050132,5.94983e-05
117,66.293,-166.93,20.659000000000002,28.967,0.83924,2.6277999999999996e-06,6.9173e-06,3.4585000000000004e-06,0.0061836999999999994,7.33902e-05
118,66.297,-166.91,20.235,38.286,0.026599,3.4774e-06,9.1538e-06,4.576700000000001e-06,0.008183,9.7119e-05
119,66.30199999999999,-166.89,19.752,48.419,0.016115,4.4208e-06,1.1637e-05,5.818300000000001e-06,0.010403,0.000123468
120,66.55199999999999,-165.97,19.035999999999998,6.9937,0.0041979999999999995,0.0,0.0013463,0.0015242,5.4591000000000006e-05,0.00022064
121,66.558,-165.96,19.16,6.4541,1.8342,0.0,0.0012413,0.0014053,5.0333e-05,0.00020343
122,66.563,-165.94,19.16,11.231,1.3865,0.0,0.00216,0.0024454,8.758700000000001e-05,0.00035399
123,66.548,-165.74,17.517,5.1131,1.8753,0.0,0.00098323,0.0011131,3.9869e-05,0.000161135
124,66.544,-165.76,17.59,4.3899,8.7689,0.0,0.00084428,0.00095583,3.4235e-05,0.00013836399999999998
125,66.54,-165.78,17.719,15.862,3.2104,0.0,0.0030500999999999996,0.0034530999999999997,0.00012368,0.00049986
126,66.53699999999999,-165.79,17.801,3.8537,1.7634,0.0,0.00074129,0.00083923,3.0058000000000003e-05,0.000121485
127,66.533,-165.81,17.827,25.151999999999997,0.62019,4.0668e-06,0.0031506,0.0035669000000000005,0.0018022000000000001,0.00051634
128,66.53,-165.83,17.861,2.3384,2.3889,0.0,0.00044956,0.00050896,1.8229e-05,7.3677e-05
129,66.52600000000001,-165.85,17.672,38.013000000000005,1.8518,0.0,0.0073013,0.008265999999999999,0.00029606,0.00119657
130,66.523,-165.87,17.544,8.4276,0.7855,0.0,0.0016215,0.0018358,6.5751e-05,0.00026574
131,66.51899999999999,-165.89,17.387999999999998,10.603,2.634,0.0,0.0020393,0.0023087,8.269e-05,0.0003342
132,66.515,-165.91,17.076,12.269,5.6491,0.0,0.0023611,0.002673,9.574e-05,0.00038694
133,66.512,-165.93,16.980999999999998,11.425999999999998,1.4679,0.0,0.0021996,0.0024901999999999997,8.919100000000001e-05,0.00036048
134,66.508,-165.95,16.902,6.8819,11.77,0.0,0.0013237,0.0014985999999999999,5.3676000000000006e-05,0.00021693
135,66.505,-165.97,16.886,9.1394,3.4597,0.0,0.0017580999999999999,0.0019904,7.129e-05,0.00028812
136,66.502,-165.98,16.947,28.22,2.8492,0.0,0.005425800000000001,0.0061427,0.00022001,0.0008891999999999999
137,66.501,-166.0,17.195,19.778,1.5624,0.0,0.0038082999999999997,0.0043115,0.00015443,0.0006241300000000001
138,66.5,-166.03,17.463,22.903000000000002,0.79361,0.0,0.0044136,0.0049967,0.00017897,0.00072331
139,66.499,-166.05,17.477,16.730999999999998,0.8384799999999999,0.0,0.0032207,0.0036461999999999996,0.0001306,0.00052782
140,66.499,-166.07,17.737000000000002,12.515,5.3346,0.0,0.0024088,0.002727,9.7674e-05,0.00039475999999999997
141,66.5,-166.09,17.758,6.625,0.5229699999999999,0.0,0.0012748,0.0014432,5.1691000000000004e-05,0.00020891
142,66.5,-166.11,17.897000000000002,2.6585,0.68297,0.0,0.0005119,0.00057954,2.0756999999999998e-05,8.3893e-05
143,66.499,-166.13,17.984,7.2038,0.06878200000000001,0.0,0.0013858,0.0015689,5.6193e-05,0.00022710999999999999
144,66.499,-166.15,18.01,3.2645,0.054929,0.0,0.00062635,0.00070911,2.5398000000000003e-05,0.000102648
145,66.499,-166.17,18.043,1.9926,0.083775,0.0,0.00038332,0.00043397,1.5543e-05,6.2821e-05
146,66.499,-166.19,17.95,6.2856,0.055795000000000004,0.0,0.0012092000000000001,0.0013689,4.903e-05,0.000198162
147,66.499,-166.21,17.692,2.5412,0.085999,0.0,0.00048873,0.0005533,1.9818e-05,8.0095e-05
148,66.5,-166.23,17.37,4.5403,0.26358000000000004,0.0,0.00087376,0.00098921,3.543e-05,0.000143196
149,66.5,-166.25,17.1,5.1122,0.5674600000000001,0.0,0.00098262,0.0011124000000000002,3.9844e-05,0.000161035
150,66.5,-166.27,16.81,11.019,0.92542,0.0,0.0021189,0.0023988000000000004,8.5919e-05,0.00034725999999999995
151,66.5,-166.3,16.507,5.0176,1.2887,0.0,0.00096351,0.0010907999999999998,3.907e-05,0.000157904
152,66.498,-166.3,16.676,7.4093,0.82625,0.0,0.0014243,0.0016125,5.7753999999999996e-05,0.00023342
153,66.497,-166.3,16.756,5.4197,0.49068,0.0,0.0010414999999999999,0.0011790999999999998,4.2233e-05,0.000170689
154,66.499,-166.32,16.198,5.3257,4.4777,0.0,0.0010239,0.0011591,4.1516999999999996e-05,0.000167795
155,66.501,-166.34,15.878,13.052999999999999,1.7127,0.0,0.0025104,0.0028420999999999997,0.00010180000000000001,0.00041142
156,66.501,-166.36,15.512,7.949,0.054108,0.0,0.0015278,0.0017297,6.1951e-05,0.00025038
157,66.501,-166.38,15.197000000000001,2.7188,0.008362999999999999,0.0,0.00052237,0.00059139,2.1181999999999998e-05,8.560799999999998e-05
158,66.5,-166.4,15.109000000000002,1.5758,1.1246,0.0,0.00030244,0.0003424,1.2264000000000002e-05,4.9565000000000004e-05
159,66.5,-166.42,15.357000000000001,0.9888,3.3073,0.0,0.00018984,0.00021492,7.6977e-06,3.1111e-05
160,66.5,-166.44,15.755,1.0358,1.5028,0.0,0.00019895,0.00022523,8.067100000000001e-06,3.2604e-05
161,66.5,-166.46,16.162,1.9956,0.9122,0.0,0.00038337,0.00043402,1.5545e-05,6.282799999999999e-05
162,66.5,-166.49,16.594,1.851,0.56617,0.0,0.00035509,0.00040201,1.4399e-05,5.8194000000000006e-05
163,66.5,-166.51,17.073,2.9214,1.7108,0.0,0.00056133,0.00063549,2.2760999999999998e-05,9.1992e-05
164,66.5,-166.53,17.625999999999998,4.8827,0.58396,0.0,0.00093742,0.0010613,3.8011e-05,0.000153628
165,66.5,-166.55,18.261,2.4505,0.33402,0.0,0.0004711,0.00053335,1.9103e-05,7.720599999999999e-05
166,66.5,-166.57,19.069000000000003,3.9774,0.074946,0.0,0.00076536,0.00086648,3.1035e-05,0.000125429
167,66.5,-166.59,19.965999999999998,14.774000000000001,1.143,0.0,0.0028418000000000002,0.0032173,0.00011523,0.00046573000000000003
168,66.5,-166.61,21.146,3.3802,0.015494999999999998,0.0,0.00065075,0.00073674,2.6388000000000002e-05,0.000106648
169,66.499,-166.63,21.935,17.395,0.79975,0.0010211999999999999,0.0013390999999999998,0.0061903999999999995,0.0019485,0.0
170,66.499,-166.65,22.910999999999998,7.8216,0.07849199999999999,0.00045169,0.00059231,0.0027381999999999997,0.00086189,0.0
171,66.499,-166.67,24.021,26.128,0.045535,0.0014722000000000001,0.0019305,0.0089245,0.0028090999999999997,0.0
172,66.499,-166.69,24.918000000000003,226.76,0.045163999999999996,0.00050506,0.00052328,0.0024191,0.044412,0.0
173,66.499,-166.71,25.708000000000002,8.5088,0.012097,0.00049666,0.00065128,0.0030108,0.00094769,0.0
174,66.499,-166.73,26.474,6.6159,0.098534,0.00038760000000000004,0.00050827,0.0023497,0.00073959,0.0
175,66.499,-166.75,27.185,2.2244,0.12385999999999998,0.00013098,0.00017176,0.00079404,0.00024993,0.0
176,66.498,-166.78,27.843000000000004,1.415,1.3941,8.3223e-05,0.00010913,0.00050452,0.0001588,0.0
177,66.499,-166.8,28.506999999999998,6.3069,0.34661,0.00036259,0.00047547,0.0021980999999999997,0.00069187,0.0
178,66.499,-166.82,29.125999999999998,10.128,0.27715,0.00058339,0.00076502,0.0035366,0.0011132,0.0
179,66.499,-166.84,29.569000000000003,2.9759,0.29765,0.00017489,0.00022934,0.0010602,0.00033372,0.0
180,66.499,-166.86,29.945999999999998,0.9653799999999999,0.34899,5.6041e-05,7.3488e-05,0.00033973,0.00010693,0.0
181,66.499,-166.88,30.326,0.65603,1.9867,3.8299e-05,5.0222e-05,0.00023217,7.3079e-05,0.0
182,66.5,-166.9,30.678,6.4129,0.14087,0.00037783,0.00049546,0.0022905,0.00072096,0.0
183,66.5,-166.92,30.749000000000002,3.8864,0.098923,0.0002242,0.000294,0.0013591,0.00042781,0.0
184,66.5,-166.94,30.579,1.9628,0.58867,0.00011371,0.00014911,0.00068931,0.00021697,0.0
185,66.5,-166.96,30.48,6.1342,0.061335,0.00035272,0.00046254,0.0021383,0.00067305,0.0
186,66.5,-166.98,30.413,7.2958,0.57973,0.00042096,0.00055201,0.0025519,0.00080325,0.0
187,66.5,-167.01,30.311,5.8026,0.70387,0.00033268,0.00043625,0.0020168,0.0006348,0.0
